# # TkB (keV), bestfit, lower, upper
8.617333262145000505e-01 3.344130000000000109e+03 3.232650000000000091e+03 3.438500000000000000e+03
4.308666631072500586e+00 2.304800000000000182e+03 2.243579999999999927e+03 2.355239999999999782e+03
8.617333262145001171e+00 1.989410000000000082e+03 1.922279999999999973e+03 2.045220000000000027e+03
1.292599989321749909e+01 1.803359999999999900e+03 1.730789999999999964e+03 1.864440000000000055e+03
1.723466652429000234e+01 1.670569999999999936e+03 1.594339999999999918e+03 1.735400000000000091e+03
2.154333315536250026e+01 1.563890000000000100e+03 1.485559999999999945e+03 1.631079999999999927e+03
2.585199978643499819e+01 1.470750000000000000e+03 1.391559999999999945e+03 1.539160000000000082e+03
3.446933304858000469e+01 1.307809999999999945e+03 1.229380000000000109e+03 1.376400000000000091e+03
4.308666631072500053e+01 1.167250000000000000e+03 1.091319999999999936e+03 1.234369999999999891e+03
5.170399957286999637e+01 1.044390000000000100e+03 9.717300000000000182e+02 1.109240000000000009e+03
6.032133283501499932e+01 9.357949999999999591e+02 8.668160000000000309e+02 9.978840000000000146e+02
6.893866609716000937e+01 8.388350000000000364e+02 7.738029999999999973e+02 8.978210000000000264e+02
7.755599935930500521e+01 7.517290000000000418e+02 6.908089999999999691e+02 8.073550000000000182e+02
8.617333262145000106e+01 6.733049999999999500e+02 6.165700000000000500e+02 7.254080000000000155e+02
1.292599989321749945e+02 3.865570000000000164e+02 3.491569999999999823e+02 4.215609999999999786e+02
1.723466652429000021e+02 2.240099999999999909e+02 2.003530000000000086e+02 2.463640000000000043e+02
2.154333315536250097e+02 1.321709999999999923e+02 1.171310000000000002e+02 1.464600000000000080e+02
2.585199978643499890e+02 7.967640000000000100e+01 6.983379999999999654e+01 8.905780000000000030e+01
3.016066641750750250e+02 4.942490000000000094e+01 4.270340000000000202e+01 5.584680000000000177e+01
3.446933304858000042e+02 3.179870000000000019e+01 2.699769999999999825e+01 3.639589999999999748e+01
4.308666631072500195e+02 1.469950000000000045e+01 1.201570000000000071e+01 1.728160000000000096e+01
5.170399957286999779e+02 6.882290000000000241e+00 5.457209999999999894e+00 8.260249999999999204e+00
6.032133283501500500e+02 1.783779999999999921e+00 1.387539999999999996e+00 2.168610000000000149e+00
6.893866609716000085e+02 2.184860000000000135e-01 1.680649999999999922e-01 2.676379999999999870e-01
7.755599935930499669e+02 2.834899999999999920e-02 2.166380000000000042e-02 3.488809999999999828e-02
8.617333262145000390e+02 4.883679999999999619e-03 3.716929999999999800e-03 6.028640000000000040e-03
