# E [keV], best_fit, best_fit-sigma, best_fit+sigma
8.617333262145000505e-01 3.344130000000000109e+03 3.340839055436519629e+03 3.493740077324915092e+03
4.308666631072500586e+00 2.304800000000000182e+03 2.224177584129847673e+03 2.342445566353385857e+03
8.617333262145001171e+00 1.989410000000000082e+03 1.877277943753206273e+03 2.030894517816402413e+03
1.292599989321749909e+01 1.803359999999999900e+03 1.678180486036183538e+03 1.848472711220898418e+03
1.723466652429000234e+01 1.670569999999999936e+03 1.539613393282405013e+03 1.718155446604045437e+03
2.154333315536250026e+01 1.563890000000000100e+03 1.431326847083512121e+03 1.612933027189252016e+03
2.585199978643499819e+01 1.470750000000000000e+03 1.339163938057328778e+03 1.520406665870151528e+03
3.446933304858000469e+01 1.307809999999999945e+03 1.182245394350382185e+03 1.357055604588222423e+03
4.308666631072500053e+01 1.167250000000000000e+03 1.049838851711412644e+03 1.214888630449832135e+03
5.170399957286999637e+01 1.044390000000000100e+03 9.355752549509431901e+02 1.089878927300767600e+03
6.032133283501499932e+01 9.357949999999999591e+02 8.354220947223972189e+02 9.788436777123209822e+02
6.893866609716000937e+01 8.388350000000000364e+02 7.465808800163590604e+02 8.792735032924790630e+02
7.755599935930500521e+01 7.517290000000000418e+02 6.672045198590117252e+02 7.894617679093319111e+02
8.617333262145000106e+01 6.733049999999999500e+02 5.960836323739200679e+02 7.083038202697990755e+02
1.292599989321749945e+02 3.865570000000000164e+02 3.387903199266566503e+02 4.091854794488014591e+02
1.723466652429000021e+02 2.240099999999999909e+02 1.948358025666985611e+02 2.380427862301649782e+02
2.154333315536250097e+02 1.321709999999999923e+02 1.140779359107138049e+02 1.408587090170541956e+02
2.585199978643499890e+02 7.967640000000000100e+01 6.807376863209775308e+01 8.514657020604816751e+01
3.016066641750750250e+02 4.942490000000000094e+01 4.161238169914964402e+01 5.297858089321122321e+01
3.446933304858000042e+02 3.179870000000000019e+01 2.624039207810383445e+01 3.420394397005157572e+01
4.308666631072500195e+02 1.469950000000000045e+01 1.151438609601069452e+01 1.593257211247524374e+01
5.170399957286999779e+02 6.882290000000000241e+00 5.108468894537103289e+00 7.510724287876954897e+00
6.032133283501500500e+02 1.783779999999999921e+00 1.265936945016947313e+00 1.956754344697733794e+00
6.893866609716000085e+02 2.184860000000000135e-01 1.497067457752558617e-01 2.405920410493541106e-01
7.755599935930499669e+02 2.834899999999999920e-02 1.888626677987139194e-02 3.131124442940109998e-02
8.617333262145000390e+02 4.883679999999999619e-03 3.177230875989964665e-03 5.407715636982062153e-03
